; Name diameter(mm) Length(mm) delay propellant_weight(kg) mass(kg)
M11100-I 101.6 1938 P 5.61 11.53 SSI
0.010 1356.150
0.280 1713.951
0.550 1666.662
0.820 1623.280
1.090 1581.536
1.360 1546.273
1.630 1511.670
1.900 1476.937
2.170 1446.240
2.440 1416.995
2.710 1388.121
2.980 1362.071
3.250 1334.814
3.520 1308.682
3.790 1284.566
4.050 1260.529
4.320 1237.482
4.590 1217.376
4.860 1196.408
5.130 1174.241
5.400 1155.011
5.670 1134.304
5.940 1113.715
6.210 1093.637
6.480 1075.233
6.750 1057.663
7.020 1038.131
7.290 1019.989
7.560 1001.874
7.827 0.000
;